# wavelength(nm) Cross_section(nm^2)
400   0.01261694
401   0.01258337
402   0.01255136
403   0.01252066
404   0.01249101
405   0.01246219
406   0.01243394
407   0.01240602
408   0.01237820
409   0.01235024
410   0.01232191
411   0.01229296
412   0.01226318
413   0.01223233
414   0.01220021
415   0.01216692
416   0.01213274
417   0.01209794
418   0.01206279
419   0.01202757
420   0.01199254
421   0.01195795
422   0.01192408
423   0.01189117
424   0.01185949
425   0.01182928
426   0.01180080
427   0.01177430
428   0.01175003
429   0.01172823
430   0.01170917
431   0.01169307
432   0.01167996
433   0.01166958
434   0.01166169
435   0.01165606
436   0.01165244
437   0.01165059
438   0.01165027
439   0.01165123
440   0.01165324
441   0.01165604
442   0.01165939
443   0.01166303
444   0.01166672
445   0.01167019
446   0.01167319
447   0.01167546
448   0.01167672
449   0.01167673
450   0.01167519
451   0.01167185
452   0.01166656
453   0.01165956
454   0.01165116
455   0.01164167
456   0.01163142
457   0.01162072
458   0.01160988
459   0.01159924
460   0.01158910
461   0.01157980
462   0.01157165
463   0.01156498
464   0.01156012
465   0.01155741
466   0.01155717
467   0.01155976
468   0.01156551
469   0.01157478
470   0.01158794
471   0.01160536
472   0.01162742
473   0.01165437
474   0.01168634
475   0.01172350
476   0.01176601
477   0.01181407
478   0.01186788
479   0.01192767
480   0.01199368
481   0.01206620
482   0.01214551
483   0.01223193
484   0.01232582
485   0.01242754
486   0.01253750
487   0.01265615
488   0.01278397
489   0.01292147
490   0.01306921
491   0.01322778
492   0.01339785
493   0.01358010
494   0.01377528
495   0.01398420
496   0.01420771
497   0.01444652
498   0.01470082
499   0.01497063
500   0.01525595
501   0.01555670
502   0.01587270
503   0.01620368
504   0.01654922
505   0.01690872
506   0.01728139
507   0.01766619
508   0.01806178
509   0.01846650
510   0.01887831
511   0.01929475
512   0.01971287
513   0.02012924
514   0.02053991
515   0.02094039
516   0.02132569
517   0.02169039
518   0.02202868
519   0.02233453
520   0.02260188
521   0.02282482
522   0.02299831
523   0.02311935
524   0.02318589
525   0.02319669
526   0.02315135
527   0.02305038
528   0.02289515
529   0.02268787
530   0.02243148
531   0.02212958
532   0.02178628
533   0.02140607
534   0.02099365
535   0.02055384
536   0.02009140
537   0.01961097
538   0.01911693
539   0.01861337
540   0.01810402
541   0.01759220
542   0.01708084
543   0.01657247
544   0.01606922
545   0.01557283
546   0.01508472
547   0.01460597
548   0.01413737
549   0.01367947
550   0.01323256
551   0.01279673
552   0.01237207
553   0.01195860
554   0.01155631
555   0.01116515
556   0.01078507
557   0.01041596
558   0.01005772
559   0.00971022
560   0.00937332
561   0.00904685
562   0.00873065
563   0.00842454
564   0.00812833
565   0.00784185
566   0.00756488
567   0.00729724
568   0.00703871
569   0.00678910
570   0.00654819
571   0.00631579
572   0.00609169
573   0.00587568
574   0.00566756
575   0.00546712
576   0.00527416
577   0.00508849
578   0.00490990
579   0.00473821
580   0.00457321
581   0.00441472
582   0.00426256
583   0.00411654
584   0.00397644
585   0.00384204
586   0.00371314
587   0.00358950
588   0.00347093
589   0.00335722
590   0.00324815
591   0.00314353
592   0.00304318
593   0.00294690
594   0.00285451
595   0.00276583
596   0.00268070
597   0.00259896
598   0.00252044
599   0.00244500
600   0.00237250
601   0.00230278
602   0.00223573
603   0.00217120
604   0.00210909
605   0.00204927
606   0.00199163
607   0.00193607
608   0.00188248
609   0.00183076
610   0.00178083
611   0.00173259
612   0.00168596
613   0.00164086
614   0.00159720
615   0.00155493
616   0.00151396
617   0.00147422
618   0.00143567
619   0.00139826
620   0.00136194
621   0.00132669
622   0.00129247
623   0.00125924
624   0.00122697
625   0.00119564
626   0.00116521
627   0.00113565
628   0.00110695
629   0.00107908
630   0.00105201
631   0.00102572
632   0.00100019
633   0.00097539
634   0.00095132
635   0.00092794
636   0.00090525
637   0.00088322
638   0.00086184
639   0.00084109
640   0.00082095
641   0.00080142
642   0.00078247
643   0.00076410
644   0.00074629
645   0.00072903
646   0.00071230
647   0.00069610
648   0.00068041
649   0.00066522
650   0.00065052
651   0.00063631
652   0.00062257
653   0.00064360
654   0.00063005
655   0.00061697
656   0.00060435
657   0.00059218
658   0.00058046
659   0.00056916
660   0.00055830
661   0.00054784
662   0.00053779
663   0.00052811
664   0.00051880
665   0.00050985
666   0.00050122
667   0.00049293
668   0.00048494
669   0.00047724
670   0.00046983
671   0.00046270
672   0.00045582
673   0.00044919
674   0.00044280
675   0.00043664
676   0.00043069
677   0.00042496
678   0.00041942
679   0.00041407
680   0.00040890
681   0.00040391
682   0.00039908
683   0.00039441
684   0.00038988
685   0.00038550
686   0.00038125
687   0.00037713
688   0.00037313
689   0.00036925
690   0.00036547
691   0.00036180
692   0.00035822
693   0.00035474
694   0.00035134
695   0.00034803
696   0.00034479
697   0.00034162
698   0.00033852
699   0.00033548
700   0.00033251
701   0.00032958
702   0.00032670
703   0.00032388
704   0.00032109
705   0.00031834
706   0.00031563
707   0.00031296
708   0.00031032
709   0.00030772
710   0.00030516
711   0.00030262
712   0.00030013
713   0.00029766
714   0.00029524
715   0.00029284
716   0.00029048
717   0.00028814
718   0.00028585
719   0.00028358
720   0.00028134
721   0.00027914
722   0.00027696
723   0.00027482
724   0.00027270
725   0.00027061
726   0.00026856
727   0.00026653
728   0.00026453
729   0.00026256
730   0.00026061
731   0.00025870
732   0.00025681
733   0.00025495
734   0.00025311
735   0.00025130
736   0.00024952
737   0.00024776
738   0.00024603
739   0.00024432
740   0.00024263
741   0.00024098
742   0.00023934
743   0.00023773
744   0.00023614
745   0.00023458
746   0.00023304
747   0.00023152
748   0.00023003
749   0.00022856
750   0.00022711
751   0.00022568
752   0.00022427
753   0.00022289
754   0.00022153
755   0.00022018
756   0.00021886
757   0.00021756
758   0.00021628
759   0.00021502
760   0.00021377
761   0.00021255
762   0.00021134
763   0.00021015
764   0.00020898
765   0.00020782
766   0.00020667
767   0.00020555
768   0.00020443
769   0.00020333
770   0.00020224
771   0.00020117
772   0.00020010
773   0.00019905
774   0.00019801
775   0.00019698
776   0.00019597
777   0.00019496
778   0.00019396
779   0.00019297
780   0.00019199
781   0.00019102
782   0.00019005
783   0.00018910
784   0.00018815
785   0.00018721
786   0.00018628
787   0.00018535
788   0.00018443
789   0.00018351
790   0.00018260
791   0.00018170
792   0.00018080
793   0.00017990
794   0.00017901
795   0.00017813
796   0.00017724
797   0.00017637
798   0.00017549
799   0.00017462
800   0.00017375
